# Data for H2O compton scattering and molecular form factor
# ---------------------------------------------------------
#
# Compton scattering uses the He/2 approach (PDFGetX2): Total = 2*H + O
# Molecular form factor is taken from Wang. et al (SDIC calculations) 
# Wang et al.  J. Chem. Phys. 101, 4842 (1994); https://doi.org/10.1063/1.467407				
#
#	        Compton Scattering of H2O			Molecular form factor
Q (1/A)		H	        O	        total	    FF
0.000000	0.000000	0.000000	0.000000	100
0.025000	0.000391	0.000651	0.001434	99.98966
0.050000	0.000814	0.002010	0.003638	99.955342
0.075000	0.001289	0.004131	0.006710	99.897387
0.100000	0.001838	0.007072	0.010747	99.81593
0.125000	0.002481	0.010886	0.015849	99.711203
0.150000	0.003238	0.015621	0.022097	99.583414
0.175000	0.004111	0.021277	0.029499	99.432777
0.200000	0.005101	0.027844	0.038046	99.259484
0.225000	0.006208	0.035310	0.047725	99.063762
0.250000	0.007431	0.043665	0.058527	98.845783
0.275000	0.008772	0.052897	0.070441	98.605757
0.300000	0.010230	0.062997	0.083456	98.34393
0.325000	0.011805	0.073952	0.097562	98.060462
0.350000	0.013497	0.085753	0.112746	97.755611
0.375000	0.015306	0.098388	0.129000	97.429521
0.400000	0.017233	0.111847	0.146312	97.082491
0.425000	0.019277	0.126119	0.164672	96.714795
0.450000	0.021438	0.141192	0.184068	96.326835
0.475000	0.023717	0.157056	0.204491	95.918988
0.500000	0.026114	0.173700	0.225928	95.491665
0.525000	0.028629	0.191113	0.248370	95.045223
0.550000	0.031261	0.209285	0.271806	94.580056
0.575000	0.034011	0.228204	0.296225	94.096533
0.600000	0.036879	0.247859	0.321617	93.595055
0.625000	0.039865	0.268241	0.347970	93.076121
0.650000	0.042968	0.289336	0.375273	92.540145
0.675000	0.046188	0.311131	0.403507	91.987603
0.700000	0.049521	0.333609	0.432651	91.418949
0.725000	0.052965	0.356754	0.462684	90.834669
0.750000	0.056517	0.380550	0.493584	90.235223
0.775000	0.060175	0.404980	0.525330	89.621047
0.800000	0.063937	0.430028	0.557902	88.992638
0.825000	0.067800	0.455677	0.591277	88.350559
0.850000	0.071761	0.481913	0.625434	87.695315
0.875000	0.075817	0.508718	0.660353	87.027386
0.900000	0.079968	0.536076	0.696012	86.347341
0.925000	0.084209	0.563971	0.732390	85.655665
0.950000	0.088539	0.592387	0.769465	84.952906
0.975000	0.092954	0.621308	0.807216	84.23958
1.000000	0.097454	0.650716	0.845623	83.51618
1.025000	0.102034	0.680597	0.884664	82.783257
1.050000	0.106692	0.710933	0.924317	82.041334
1.075000	0.111427	0.741709	0.964562	81.290906
1.100000	0.116235	0.772908	1.005377	80.532499
1.125000	0.121114	0.804514	1.046741	79.766668
1.150000	0.126061	0.836510	1.088633	78.993909
1.175000	0.131075	0.868882	1.131031	78.21472
1.200000	0.136152	0.901612	1.173915	77.429625
1.225000	0.141290	0.934683	1.217262	76.63909
1.250000	0.146486	0.968081	1.261053	75.843638
1.275000	0.151738	1.001788	1.305265	75.043765
1.300000	0.157045	1.035792	1.349882	74.23993
1.325000	0.162403	1.070078	1.394884	73.432655
1.350000	0.167811	1.104635	1.440257	72.622457
1.375000	0.173267	1.139449	1.485983	71.809702
1.400000	0.178769	1.174508	1.532046	70.994905
1.425000	0.184315	1.209800	1.578429	70.178455
1.450000	0.189902	1.245310	1.625115	69.36083
1.475000	0.195530	1.281027	1.672087	68.542416
1.500000	0.201195	1.316938	1.719328	67.723712
1.525000	0.206896	1.353029	1.766822	66.905128
1.550000	0.212632	1.389289	1.814552	66.087037
1.575000	0.218399	1.425704	1.862501	65.269839
1.600000	0.224195	1.462262	1.910653	64.453869
1.625000	0.230020	1.498949	1.958989	63.639459
1.650000	0.235871	1.535754	2.007496	62.827026
1.675000	0.241745	1.572663	2.056154	62.016861
1.700000	0.247642	1.609663	2.104947	61.209373
1.725000	0.253558	1.646742	2.153858	60.404874
1.750000	0.259492	1.683887	2.202872	59.603671
1.775000	0.265442	1.721086	2.251971	58.806097
1.800000	0.271406	1.758324	2.301137	58.01239
1.825000	0.277382	1.795591	2.350355	57.2229
1.850000	0.283368	1.832872	2.399608	56.437916
1.875000	0.289362	1.870155	2.448878	55.657688
1.900000	0.295361	1.907428	2.498150	54.882552
1.925000	0.301365	1.944681	2.547410	54.112749
1.950000	0.307371	1.981908	2.596650	53.348394
1.975000	0.313379	2.019101	2.645859	52.589717
2.000000	0.319387	2.056254	2.695027	51.836822
2.025000	0.325393	2.093360	2.744145	51.089898
2.050000	0.331396	2.130413	2.793204	50.3491
2.075000	0.337394	2.167406	2.842194	49.614574
2.100000	0.343387	2.204331	2.891104	48.886494
2.125000	0.349372	2.241183	2.939926	48.165029
2.150000	0.355348	2.277954	2.988649	47.45031
2.175000	0.361314	2.314638	3.037265	46.742527
2.200000	0.367268	2.351228	3.085763	46.04183
2.225000	0.373208	2.387718	3.134135	45.34837
2.250000	0.379134	2.424099	3.182368	44.662287
2.275000	0.385044	2.460367	3.230456	43.983782
2.300000	0.390937	2.496514	3.278387	43.312959
2.325000	0.396810	2.532533	3.326153	42.649826
2.350000	0.402663	2.568417	3.373742	41.99442
2.375000	0.408493	2.604160	3.421147	41.346801
2.400000	0.414301	2.639756	3.468357	40.706966
2.425000	0.420083	2.675197	3.515363	40.07491
2.450000	0.425839	2.710476	3.562154	39.450711
2.475000	0.431567	2.745587	3.608722	38.834385
2.500000	0.437266	2.780523	3.655056	38.225915
2.525000	0.442935	2.815278	3.701147	37.625401
2.550000	0.448572	2.849847	3.746990	37.032816
2.575000	0.454177	2.884230	3.792583	36.448166
2.600000	0.459750	2.918426	3.837925	35.87154
2.625000	0.465291	2.952433	3.883014	35.302934
2.650000	0.470799	2.986251	3.927849	34.742375
2.675000	0.476275	3.019879	3.972429	34.189853
2.700000	0.481718	3.053315	4.016752	33.645359
2.725000	0.487129	3.086561	4.060818	33.108821
2.750000	0.492506	3.119613	4.104624	32.580194
2.775000	0.497849	3.152472	4.148171	32.059402
2.800000	0.503160	3.185136	4.191455	31.546458
2.825000	0.508436	3.217605	4.234477	31.041281
2.850000	0.513679	3.249878	4.277235	30.543791
2.875000	0.518887	3.281954	4.319728	30.053966
2.900000	0.524061	3.313832	4.361954	29.571781
2.925000	0.529200	3.345510	4.403911	29.097153
2.950000	0.534305	3.376989	4.445599	28.630055
2.975000	0.539375	3.408268	4.487018	28.170401
3.000000	0.544410	3.439345	4.528164	27.718194
3.025000	0.549409	3.470219	4.569037	27.273345
3.050000	0.554373	3.500890	4.609635	26.835827
3.075000	0.559301	3.531357	4.649959	26.40552
3.100000	0.564193	3.561619	4.690005	25.982395
3.125000	0.569049	3.591675	4.729773	25.566363
3.150000	0.573869	3.621524	4.769262	25.157334
3.175000	0.578652	3.651166	4.808470	24.755188
3.200000	0.583399	3.680598	4.847395	24.359925
3.225000	0.588108	3.709822	4.886038	23.971396
3.250000	0.592781	3.738835	4.924396	23.589542
3.275000	0.597416	3.767636	4.962467	23.214303
3.300000	0.602013	3.796226	5.000253	22.84556
3.325000	0.606573	3.824603	5.037750	22.483256
3.350000	0.611095	3.852765	5.074956	22.127331
3.375000	0.615579	3.880713	5.111872	21.777668
3.400000	0.620025	3.908445	5.148495	21.434211
3.425000	0.624432	3.935961	5.184825	21.096842
3.450000	0.628801	3.963259	5.220860	20.765536
3.475000	0.633130	3.990339	5.256599	20.440178
3.500000	0.637421	4.017199	5.292040	20.120653
3.525000	0.641672	4.043840	5.327184	19.806879
3.550000	0.645884	4.070260	5.362027	19.498801
3.575000	0.650056	4.096457	5.396568	19.196278
3.600000	0.654188	4.122432	5.430808	18.899289
3.625000	0.658280	4.148184	5.464744	18.607693
3.650000	0.662332	4.173711	5.498375	18.321412
3.675000	0.666343	4.199012	5.531698	18.040366
3.700000	0.670314	4.224087	5.564715	17.764479
3.725000	0.674244	4.248935	5.597422	17.493643
3.750000	0.678132	4.273555	5.629820	17.227754
3.775000	0.681980	4.297946	5.661906	16.966735
3.800000	0.685786	4.322108	5.693680	16.710545
3.825000	0.689551	4.346042	5.725144	16.45905
3.850000	0.693276	4.369750	5.756301	16.212209
3.875000	0.696960	4.393233	5.787152	15.969921
3.900000	0.700603	4.416492	5.817699	15.732176
3.925000	0.704208	4.439530	5.847945	15.498846
3.950000	0.707772	4.462347	5.877891	15.269893
3.975000	0.711298	4.484946	5.907541	15.045251
4.000000	0.714784	4.507327	5.936895	14.824824
4.025000	0.718232	4.529491	5.965956	14.608578
4.050000	0.721642	4.551442	5.994726	14.396418
4.075000	0.725014	4.573179	6.023207	14.188252
4.100000	0.728349	4.594705	6.051402	13.984079
4.125000	0.731646	4.616022	6.079313	13.783748
4.150000	0.734906	4.637129	6.106941	13.587258
4.175000	0.738129	4.658030	6.134289	13.394521
4.200000	0.741317	4.678725	6.161358	13.20545
4.225000	0.744468	4.699216	6.188151	13.019986
4.250000	0.747583	4.719504	6.214670	12.838044
4.275000	0.750663	4.739591	6.240917	12.659569
4.300000	0.753708	4.759479	6.266895	12.484506
4.325000	0.756718	4.779169	6.292606	12.312772
4.350000	0.759694	4.798662	6.318050	12.144313
4.375000	0.762636	4.817960	6.343232	11.979019
4.400000	0.765544	4.837064	6.368151	11.816867
4.425000	0.768418	4.855976	6.392812	11.657748
4.450000	0.771259	4.874698	6.417216	11.501612
4.475000	0.774067	4.893230	6.441365	11.348379
4.500000	0.776843	4.911575	6.465261	11.198033
4.525000	0.779587	4.929733	6.488906	11.050406
4.550000	0.782298	4.947707	6.512303	10.90554
4.575000	0.784978	4.965497	6.535453	10.7633
4.600000	0.787627	4.983106	6.558359	10.623671
4.625000	0.790244	5.000535	6.581023	10.486608
4.650000	0.792831	5.017785	6.603447	10.352067
4.675000	0.795388	5.034857	6.625632	10.220034
4.700000	0.797914	5.051754	6.647582	10.090467
4.725000	0.800411	5.068476	6.669298	9.963263
4.750000	0.802878	5.085026	6.690782	9.838471
4.775000	0.805316	5.101404	6.712037	9.715989
4.800000	0.807726	5.117613	6.733065	9.595776
4.825000	0.810107	5.133653	6.753866	9.477853
4.850000	0.812460	5.149526	6.774445	9.362091
4.875000	0.814785	5.165234	6.794803	9.248509
4.900000	0.817082	5.180778	6.814942	9.137069
4.925000	0.819352	5.196160	6.834864	9.027672
4.950000	0.821595	5.211380	6.854571	8.920342
4.975000	0.823812	5.226442	6.874066	8.815011
5.000000	0.826002	5.241345	6.893350	8.711641
5.025000	0.828167	5.256092	6.912426	8.610196
5.050000	0.830306	5.270684	6.931295	8.51064
5.075000	0.832419	5.285122	6.949960	8.412907
5.100000	0.834507	5.299408	6.968422	8.316961
5.125000	0.836570	5.313544	6.986684	8.222798
5.150000	0.838609	5.327530	7.004747	8.130322
5.175000	0.840623	5.341368	7.022613	8.039529
5.200000	0.842612	5.355060	7.040284	7.950385
5.225000	0.844578	5.368607	7.057762	7.862825
5.250000	0.846519	5.382010	7.075049	7.776817
5.275000	0.848437	5.395270	7.092145	7.692296
5.300000	0.850332	5.408390	7.109054	7.60926
5.325000	0.852204	5.421370	7.125777	7.527675
5.350000	0.854052	5.434212	7.142316	7.44748
5.375000	0.855878	5.446918	7.158674	7.368701
5.400000	0.857681	5.459488	7.174850	7.291276
5.425000	0.859462	5.471924	7.190849	7.215204
5.450000	0.861221	5.484228	7.206671	7.140453
5.475000	0.862959	5.496401	7.222318	7.06702
5.500000	0.864674	5.508445	7.237793	6.994844
5.525000	0.866368	5.520360	7.253097	6.923955
5.550000	0.868041	5.532148	7.268231	6.854291
5.575000	0.869694	5.543811	7.283198	6.785851
5.600000	0.871325	5.555349	7.297999	6.718574
5.625000	0.872936	5.566766	7.312638	6.65249
5.650000	0.874527	5.578061	7.327114	6.587568
5.675000	0.876097	5.589236	7.341431	6.523748
5.700000	0.877648	5.600293	7.355590	6.461059
5.725000	0.879180	5.611232	7.369591	6.399441
5.750000	0.880692	5.622057	7.383440	6.338865
5.775000	0.882185	5.632767	7.397136	6.279359
5.800000	0.883659	5.643364	7.410681	6.220835
5.825000	0.885114	5.653850	7.424078	6.163353
5.850000	0.886551	5.664226	7.437328	6.106792
5.875000	0.887970	5.674494	7.450433	6.051214
5.900000	0.889370	5.684654	7.463394	5.996558
5.925000	0.890753	5.694709	7.476215	5.942796
5.950000	0.892118	5.704660	7.488897	5.889928
5.975000	0.893467	5.714507	7.501440	5.837924
6.000000	0.894797	5.724253	7.513848	5.786755
6.025000	0.896112	5.733899	7.526122	5.736393
6.050000	0.897409	5.743446	7.538264	5.686837
6.075000	0.898690	5.752896	7.550276	5.638059
6.100000	0.899955	5.762250	7.562160	5.59003
6.125000	0.901204	5.771510	7.573917	5.542781
6.150000	0.902437	5.780676	7.585550	5.496252
6.175000	0.903654	5.789751	7.597060	5.450446
6.200000	0.904857	5.798736	7.608449	5.405362
6.225000	0.906044	5.807632	7.619720	5.360971
6.250000	0.907216	5.816440	7.630873	5.317306
6.275000	0.908374	5.825163	7.641911	5.274278
6.300000	0.909517	5.833800	7.652835	5.231976
6.325000	0.910647	5.842355	7.663648	5.190284
6.350000	0.911762	5.850826	7.674349	5.149261
6.375000	0.912863	5.859216	7.684942	5.108879
6.400000	0.913950	5.867524	7.695424	5.06914
6.425000	0.915024	5.875753	7.705800	5.029984
6.450000	0.916084	5.883902	7.716070	4.991443
6.475000	0.917130	5.891973	7.726234	4.953518
6.500000	0.918164	5.899967	7.736295	4.916151
6.525000	0.919184	5.907884	7.746252	4.879342
6.550000	0.920191	5.915725	7.756108	4.843093
6.575000	0.921186	5.923491	7.765863	4.807405
6.600000	0.922167	5.931183	7.775518	4.772251
6.625000	0.923137	5.938802	7.785075	4.737629
6.650000	0.924093	5.946349	7.794535	4.703484
6.675000	0.925038	5.953825	7.803900	4.669874
6.700000	0.925970	5.961230	7.813169	4.636743
6.725000	0.926890	5.968565	7.822345	4.60409
6.750000	0.927798	5.975832	7.831428	4.571888
6.775000	0.928694	5.983030	7.840419	4.540167
6.800000	0.929579	5.990162	7.849320	4.508869
6.825000	0.930453	5.997227	7.858132	4.478025
6.850000	0.931315	6.004227	7.866856	4.447577
6.875000	0.932165	6.011163	7.875494	4.417585
6.900000	0.933005	6.018035	7.884045	4.387961
6.925000	0.933834	6.024844	7.892511	4.358767
6.950000	0.934652	6.031592	7.900895	4.329972
6.975000	0.935459	6.038278	7.909196	4.301579
7.000000	0.936255	6.044905	7.917416	4.273559
7.025000	0.937042	6.051472	7.925555	4.245912
7.050000	0.937818	6.057981	7.933617	4.218641
7.075000	0.938584	6.064432	7.941599	4.191745
7.100000	0.939340	6.070827	7.949506	4.165197
7.125000	0.940086	6.077166	7.957337	4.138998
7.150000	0.940822	6.083450	7.965094	4.113148
7.175000	0.941549	6.089680	7.972777	4.087648
7.200000	0.942266	6.095857	7.980389	4.0625
7.225000	0.942974	6.101982	7.987930	4.037646
7.250000	0.943673	6.108056	7.995402	4.013115
7.275000	0.944363	6.114078	8.002803	3.988908
7.300000	0.945044	6.120052	8.010139	3.965028
7.325000	0.945716	6.125976	8.017407	3.941415
7.350000	0.946379	6.131853	8.024611	3.91813
7.375000	0.947034	6.137682	8.031750	3.895113
7.400000	0.947681	6.143465	8.038827	3.872367
7.425000	0.948319	6.149203	8.045842	3.849891
7.450000	0.948950	6.154897	8.052796	3.827717
7.475000	0.949572	6.160547	8.059691	3.805786
7.500000	0.950187	6.166154	8.066527	3.784098
7.525000	0.950794	6.171720	8.073307	3.762685
7.550000	0.951393	6.177244	8.080030	3.741487
7.575000	0.951985	6.182728	8.086698	3.720535
7.600000	0.952570	6.188173	8.093313	3.699831
7.625000	0.953147	6.193578	8.099872	3.679344
7.650000	0.953717	6.198944	8.106379	3.659076
7.675000	0.954280	6.204272	8.112833	3.639027
7.700000	0.954836	6.209561	8.119234	3.619229
7.725000	0.955385	6.214814	8.125585	3.599622
7.750000	0.955927	6.220029	8.131884	3.580266
7.775000	0.956463	6.225207	8.138132	3.561103
7.800000	0.956991	6.230350	8.144332	3.542164
7.825000	0.957513	6.235456	8.150482	3.523418
7.850000	0.958028	6.240527	8.156583	3.504897
7.875000	0.958536	6.245564	8.162637	3.486601
7.900000	0.959039	6.250566	8.168643	3.468501
7.925000	0.959534	6.255534	8.174602	3.450598
7.950000	0.960023	6.260469	8.180516	3.432892
7.975000	0.960506	6.265371	8.186384	3.415414
8.000000	0.960983	6.270240	8.192206	3.398104
8.025000	0.961454	6.275077	8.197985	3.380993
8.050000	0.961919	6.279882	8.203719	3.364082
8.075000	0.962377	6.284656	8.209410	3.347372
8.100000	0.962830	6.289400	8.215060	3.330831
8.125000	0.963277	6.294113	8.220666	3.314493
8.150000	0.963718	6.298796	8.226232	3.298356
8.175000	0.964153	6.303450	8.231756	3.282361
8.200000	0.964583	6.308075	8.237241	3.266569
8.225000	0.965007	6.312672	8.242686	3.250981
8.250000	0.965426	6.317241	8.248093	3.235536
8.275000	0.965839	6.321781	8.253459	3.220265
8.300000	0.966247	6.326295	8.258789	3.205169
8.325000	0.966650	6.330782	8.264082	3.190248
8.350000	0.967047	6.335243	8.269338	3.175503
8.375000	0.967440	6.339679	8.274558	3.160934
8.400000	0.967827	6.344089	8.279743	3.14651
8.425000	0.968209	6.348474	8.284893	3.132234
8.450000	0.968587	6.352834	8.290007	3.118135
8.475000	0.968959	6.357171	8.295089	3.104213
8.500000	0.969327	6.361484	8.300138	3.090408
8.525000	0.969690	6.365774	8.305154	3.076782
8.550000	0.970049	6.370042	8.310139	3.063305
8.575000	0.970403	6.374287	8.315092	3.049976
8.600000	0.970752	6.378511	8.320015	3.036796
8.625000	0.971097	6.382714	8.324908	3.023766
8.650000	0.971438	6.386895	8.329770	3.010855
8.675000	0.971774	6.391057	8.334605	2.998094
8.700000	0.972106	6.395198	8.339410	2.985483
8.725000	0.972434	6.399320	8.344189	2.973023
8.750000	0.972758	6.403424	8.348941	2.960683
8.775000	0.973078	6.407508	8.353665	2.948465
8.800000	0.973395	6.411575	8.358364	2.936397
8.825000	0.973707	6.415624	8.363038	2.924451
8.850000	0.974015	6.419655	8.367686	2.912627
8.875000	0.974320	6.423669	8.372309	2.900924
8.900000	0.974621	6.427666	8.376908	2.889343
8.925000	0.974918	6.431646	8.381483	2.877885
8.950000	0.975212	6.435609	8.386033	2.866548
8.975000	0.975502	6.439555	8.390559	2.855335
9.000000	0.975788	6.443485	8.395062	2.844214
9.025000	0.976071	6.447398	8.399541	2.833216
9.050000	0.976351	6.451295	8.403996	2.82234
9.075000	0.976627	6.455176	8.408429	2.811558
9.100000	0.976899	6.459041	8.412839	2.800899
9.125000	0.977168	6.462890	8.417226	2.790334
9.150000	0.977434	6.466723	8.421591	2.779862
9.175000	0.977696	6.470541	8.425934	2.769484
9.200000	0.977955	6.474344	8.430255	2.759229
9.225000	0.978211	6.478131	8.434554	2.749068
9.250000	0.978464	6.481904	8.438832	2.738971
9.275000	0.978714	6.485661	8.443088	2.728998
9.300000	0.978960	6.489404	8.447324	2.719089
9.325000	0.979203	6.493132	8.451538	2.709304
9.350000	0.979443	6.496845	8.455732	2.699584
9.375000	0.979681	6.500545	8.459906	2.689927
9.400000	0.979915	6.504230	8.464059	2.680365
9.425000	0.980146	6.507901	8.468193	2.670898
9.450000	0.980374	6.511558	8.472307	2.661495
9.475000	0.980600	6.515202	8.476402	2.652156
9.500000	0.980822	6.518832	8.480477	2.642912
9.525000	0.981042	6.522449	8.484534	2.633732
9.550000	0.981259	6.526053	8.488572	2.624647
9.575000	0.981474	6.529643	8.492590	2.615627
9.600000	0.981685	6.533221	8.496592	2.606641
9.625000	0.981895	6.536786	8.500575	2.59778
9.650000	0.982101	6.540338	8.504540	2.588953
9.675000	0.982305	6.543878	8.508487	2.580221
9.700000	0.982506	6.547405	8.512417	2.571524
9.725000	0.982705	6.550920	8.516330	2.562922
9.750000	0.982901	6.554424	8.520226	2.554384
9.775000	0.983095	6.557915	8.524105	2.545911
9.800000	0.983287	6.561395	8.527968	2.537532
9.825000	0.983476	6.564863	8.531815	2.529188
9.850000	0.983663	6.568320	8.535646	2.520909
9.875000	0.983847	6.571766	8.539461	2.512725
9.900000	0.984030	6.575200	8.543259	2.504575
9.925000	0.984210	6.578624	8.547044	2.496489
9.950000	0.984388	6.582037	8.550813	2.488468
9.975000	0.984564	6.585439	8.554567	2.480542
10.000000	0.984738	6.588830	8.558305	2.47265
10.025000	0.984909	6.592212	8.562031	2.464823
10.050000	0.985079	6.595583	8.565741	2.45706
10.075000	0.985247	6.598944	8.569438	2.449331
10.100000	0.985413	6.602296	8.573121	2.441697
10.125000	0.985577	6.605637	8.576790	2.434098
10.150000	0.985739	6.608969	8.580446	2.426592
10.175000	0.985899	6.612291	8.584088	2.419122
10.200000	0.986057	6.615604	8.587717	2.411685
10.225000	0.986213	6.618908	8.591334	2.404343
10.250000	0.986367	6.622202	8.594937	2.397036
10.275000	0.986520	6.625488	8.598528	2.389793
10.300000	0.986671	6.628764	8.602106	2.382614
10.325000	0.986820	6.632032	8.605672	2.37547
10.350000	0.986967	6.635291	8.609225	2.368391
10.375000	0.987113	6.638541	8.612766	2.361346
10.400000	0.987256	6.641783	8.616295	2.354395
10.425000	0.987398	6.645016	8.619812	2.347449
10.450000	0.987538	6.648241	8.623318	2.340597
10.475000	0.987677	6.651458	8.626812	2.33375
10.500000	0.987814	6.654667	8.630295	2.326997
10.525000	0.987949	6.657868	8.633766	2.320279
10.550000	0.988083	6.661062	8.637228	2.313595
10.575000	0.988215	6.664248	8.640677	2.306976
10.600000	0.988345	6.667426	8.644116	2.30042
10.625000	0.988474	6.670596	8.647544	2.29387
10.650000	0.988601	6.673760	8.650962	2.287413
10.675000	0.988727	6.676916	8.654369	2.280962
10.700000	0.988851	6.680065	8.657767	2.274575
10.725000	0.988974	6.683207	8.661154	2.268251
